--[[ v1.0.0 https://wearedevs.net/obfuscator ]] return(function(...)local z={"\043\100\087\114\083\098\083\121";"\065\057\061\061";"\077\113\079\074\072\120\099\061","\070\082\050\121\082\108\114\114\069\054\068\087\082\084\081\099\081\084\120\061";"\098\056\080\117\069\120\101\056\118\049\104\120\081\099\061\061";"\075\047\055\073";"\075\107\104\106\070\055\101\056\122\079\061\061","\122\056\068\100\122\055\119\108\100\082\077\084\100\120\077\118";"\100\097\056\084\072\083\102\099\047\043\054\073\067\085\061\061","\083\104\083\090\115\106\083\061";"\051\087\071\049\100\103\082\110\054\103\079\051\079\103\113\067\074\048\071\108\099\057\061\061","\051\048\104\071\051\100\107\087\081\075\088\061","\078\076\103\075\074\079\061\061";"\081\055\107\071\083\071\109\056\052\085\061\061";"\051\054\120\055\073\079\061\061";"\116\054\088\102\103\102\085\089\109\113\053\051\065\079\122\069\047\098\054\107","\103\088\048\110\050\055\103\053";"\118\049\068\068\066\057\061\061","\066\043\050\106\070\108\099\061","\066\055\067\109\070\072\081\056","\051\118\084\121\088\082\079\061","\053\110\087\113\101\055\056\053","\055\118\071\109\043\057\110\104\078\069\080\065\075\100\099\116";"\049\077\114\050\052\101\078\057\108\088\053\112\113\101\112\043\049\074\080\105\122\114\116\083\068\048\088\082\070\085\120\061","\051\048\119\087\070\048\082\061";"\057\100\119\054\071\115\052\115\100\050\083\080\119\090\103\052\122\087\100\081\043\099\061\061","\069\119\073\105\075\049\081\107\070\055\112\061","\048\079\101\071\106\112\102\086","\067\120\080\090\082\049\111\116\112\111\077\068\066\075\081\074";"\115\053\099\066\076\043\117\121\075\073\057\121\103\112\114\108\047\098\089\116\067\086\116\070\074\112\100\079";"\076\068\112\043\115\079\066\109\057\085\061\061","\111\057\104\071\078\088\122\103","\101\055\077\119\118\055\077\049\070\107\066\085\112\079\061\061","\066\108\056\068\051\055\077\080\082\120\109\114\098\072\101\083\051\099\061\061";"\065\069\051\056\051\120\056\087\066\120\051\099\051\108\101\116\066\100\088\061";"\084\075\068\050\072\084\101\103\090\085\061\061","\070\100\119\111\053\079\061\061";"\114\117\122\082\075\090\120\061","\089\104\049\121\054\099\090\061";"\108\097\085\121\117\085\085\066","\118\049\104\116\070\072\067\111\053\100\077\056";"\068\068\054\071\067\100\112\061","\081\075\050\116\070\072\088\061","\051\078\105\098\079\079\061\061";"\090\098\079\101\119\118\088\061","\112\086\073\084\070\108\051\115\067\055\077\109\081\055\050\071","\066\072\101\116\053\100\077\108";"\122\120\073\101\116\054\066\054";"\067\048\067\083\081\075\114\110\066\108\101\082\070\107\114\083\118\100\080\056\098\100\077\084\051\048\119\071\118\049\082\061";"\076\119\083\057","\070\111\056\103\112\100\104\072\080\067\119\110\081\100\074\082\112\082\099\061","\069\049\068\117\099\054\088\105\101\107\106\100\069\056\068\110\069\055\118\061";"\085\117\090\079\075\079\061\061","\052\067\068\083\116\085\086\061";"\043\089\081\086\105\057\061\061";"\066\075\067\074\080\107\056\065\081\054\079\077\069\120\088\072";"\051\100\077\085\118\100\080\121";"\070\089\088\061","\069\048\081\087\101\049\050\077\065\119\080\101\069\075\112\116","\081\072\080\107\118\057\061\061";"\084\070\118\043\098\090\122\102\120\079\061\061";"\080\119\068\116\101\089\119\050\053\048\109\068\118\049\112\107\070\119\051\100";"\085\108\104\065\107\100\090\061";"\066\048\080\068\070\048\085\061","\065\087\057\056\081\052\090\106\065\057\061\061","\066\043\068\065\051\120\119\115\067\084\067\099\066\111\083\111\051\057\061\061";"\100\108\101\069\100\086\056\107\101\055\080\072\101\072\081\106";"\116\073\110\075\101\057\061\061";"\100\047\049\070\049\105\110\117\065\089\116\079\052\056\066\049\109\098\100\088\111\085\061\061";"\098\116\056\090\070\120\105\086\107\079\061\061","\119\097\121\097\074\056\087\098\051\085\082\061";"\081\055\074\110\070\072\088\061";"\070\111\080\074\066\049\081\081\066\057\061\061";"\051\049\119\116\070\057\061\061","\101\055\047\065\082\085\061\061";"\109\079\076\049","\072\119\104\111\109\107\102\086\050\057\061\061";"\081\049\107\068\051\048\080\090","\070\072\112\061";"\114\083\104\112\048\116\122\122\048\053\043\080\082\084\077\050","\052\054\074\055\070\054\079\113\113\073\083\122\052\053\120\101\105\111\122\098\082\067\043\090\054\106\090\082\052\113\088\061","\119\089\112\105\089\090\077\097";"\105\087\067\083\119\082\117\049\074\109\120\121\071\079\061\061";"\070\054\068\117\098\055\051\074\112\082\050\074\122\075\067\111\080\049\086\061";"\075\107\104\109\081\075\101\068\051\048\119\087\070\048\082\061";"\053\089\050\089\112\120\074\108\069\108\081\116\118\049\074\105\069\057\061\061";"\066\049\067\111\070\100\067\111\118\075\101\068\118\055\074\056","\069\118\122\120\112\102\068\081\098\056\054\072\088\079\061\061","\109\111\074\122";"\065\099\054\073\054\099\061\061","\051\048\104\084\051\043\050\106\070\055\066\061","\051\089\119\116\082\084\068\113\080\084\056\054\122\108\056\072";"\122\100\109\080\122\055\074\088\053\100\074\089\081\049\050\113";"\076\102\089\081\074\079\061\061";"\052\050\050\075\089\079\061\061";"\065\054\088\055\081\088\084\053\065\079\061\061","\105\066\049\104\118\065\106\109\086\113\071\112\067\067\076\073\071\052\116\051\069\099\061\061";"\070\100\077\049\098\089\051\085\067\069\067\052\053\120\109\069\066\082\111\061","","\075\065\098\104\054\104\051\066\073\101\087\107\118\043\074\077\118\120\074\119\075\055\120\079\102\110\086\080\077\115\088\075\079\121\057\054\083\113\115\108";"\118\057\105\067\085\098\080\070\054\056\084\110";"\102\067\070\117\106\076\117\088\043\068\079\072","\101\049\067\111\082\049\067\116\051\055\056\054\081\099\061\061";"\069\119\073\074\075\085\061\061";"\050\116\065\098\090\109\108\101\056\079\061\061","\101\086\081\120\067\054\081\109\122\120\099\074\082\054\051\043","\116\106\068\055";"\051\078\078\114\117\079\075\082\098\087\120\061","\073\115\048\090\106\105\080\098\071\080\075\099\065\107\065\117\114\104\054\051\116\049\112\057","\080\089\050\048\112\055\118\072\065\048\051\050\098\119\068\088\112\119\090\061";"\057\089\053\090\112\121\056\111\073\100\079\078\121\054\085\103\098\119\082\115\104\079\061\061","\052\082\105\086\121\103\088\061";"\075\107\104\083\081\100\105\061";"\070\048\067\071";"\086\051\081\054\117\099\061\061";"\065\043\080\086\081\069\056\048\053\089\101\088\070\119\079\107\065\069\112\061","\099\082\101\111\112\072\088\116\101\111\082\085\082\082\067\084";"\118\049\104\071\118\049\119\111";"\057\070\050\086\108\071\116\043\116\057\047\085\069\085\061\061";"\081\049\119\109\081\099\061\061","\082\107\050\105\070\100\107\081\069\055\074\115\101\075\114\099\112\079\061\061","\067\089\068\049\112\119\080\116\067\107\120\116\070\072\056\114\081\069\088\061";"\077\120\100\074\110\079\061\061";"\066\049\068\068\066\055\067\120","\070\048\112\116\080\100\073\084\118\054\114\111\069\120\051\069";"\098\056\080\117\069\120\067\071\118\049\104\120\081\099\061\061";"\068\121\066\116\115\070\108\083\105\050\074\053\120\112\048\107\112\100\089\107\118\118\089\119\082\054\048\112\077\082\120\061";"\043\070\076\066";"\088\121\048\102\073\121\117\118\087\089\073\057\072\076\056\082","\118\108\056\111\081\099\061\061";"\048\105\088\086\067\079\061\061";"\053\049\076\085\109\116\119\117\113\122\089\050\087\071\082\085\072\122\051\101\085\087\088\056\085\119\083\071\049\050\057\061","\066\055\119\071\081\048\104\109";"\119\079\051\055\089\099\061\061","\118\054\056\098\070\048\077\069\122\086\106\107\066\072\106\101\067\079\061\061";"\070\089\086\061","\080\082\082\070\102\070\057\112\100\117\055\074\106\116\118\061","\067\048\119\109\066\048\067\116\088\086\101\056\051\048\067\054\051\048\067\120\088\099\061\061";"\072\070\103\057\097\056\075\052","\107\082\066\088\050\114\082\085\100\084\050\043\071\073\081\072\100\088\111\061";"\118\122\098\112\065\099\061\061","\097\088\114\115\055\084\103\067\071\079\061\061","\053\120\106\075\082\120\101\071\098\049\119\111\101\069\119\111\081\079\061\061";"\053\068\102\073\106\085\061\061","\122\120\107\075\069\086\056\086\099\108\119\119\112\055\101\101\101\111\120\061","\099\049\104\071\070\055\067\054\051\079\061\061","\072\057\080\048";"\069\119\073\072\075\049\081\107\070\055\112\061";"\072\086\119\116\102\043\053\107\101\077\120\106\105\116\071\080\113\087\052\101","\051\048\119\084\053\085\061\061";"\075\107\104\108\118\085\061\061","\065\118\047\120\117\121\071\083\069\090\085\087\106\074\088\071"}for i,s in ipairs({{-177012+177013,-403450+403602};{143400-143399;-1014007-(-1014114)},{-638313+638421,-932435-(-932587)}})do while s[558060-558059]<s[-263721+263723]do z[s[-344074-(-344075)]],z[s[-295292+295294]],s[826174-826173],s[-696831-(-696833)]=z[s[613876-613874]],z[s[-66980-(-66981)]],s[368197-368196]+(235349+-235348),s[286551-286549]-(517978-517977)end end local function i(i)return z[i+(-906577-(-911835))]end do local i=z local s=string.sub local Z={B=-97164+97192;s=716593+-716551,T=-978032+978083;o=1031398-1031346,p=624904+-624892,z=-514030+514060,H=-294703-(-294758);Q=704340+-704315;["\053"]=-599091+599117,V=-19239+19243;U=-505724-(-505772),["\054"]=-502165-(-502200);["\043"]=-582319-(-582326),k=-819410-(-819463);["\051"]=701798+-701769,I=180828+-180768;w=-345074+345079,q=-348180-(-348191);Y=882764-882761;G=649346-649300,a=966382+-966351,["\047"]=834739+-834680,O=-354612+354612;r=-306592-(-306593),i=357975+-357919;F=168733-168706,["\057"]=-670481+670513,m=8778+-8733,N=948422+-948359,J=-849907+849956,["\050"]=825810+-825801,["\048"]=586376-586370,b=-339822+339840;l=280374-280335;d=-706702-(-706724);f=-395501-(-395511);n=-170278+170325,h=-315413+315474,["\055"]=38528+-38490;R=-141327-(-141347),x=-941292+941328;u=433675-433660;D=1010516-1010483,t=-420696+420746;["\056"]=646117-646080;E=-515315+515334,S=305914-305870;j=-793622+793663;c=-207465-(-207481),Z=-640150-(-640190),["\049"]=185354-185300;P=-103362+103375,["\052"]=-427516+427518;A=-112297-(-112311);C=141967+-141946,L=-33812+33874;M=61296-61239;X=549523-549515,K=-626535+626558;v=973627+-973603,g=933953+-933895;y=-351069-(-351112);W=117459+-117425;e=303010-302993}local y=string.len local R=type local T=table.concat local w=string.char local E=table.insert local U=math.floor for z=767183-767182,#i,-1027842-(-1027843)do local N=i[z]if R(N)=="\115\116\114\105\110\103"then local R=y(N)local Y={}local B=-641022+641023 local V=931990-931990 local W=11721+-11721 while B<=R do local z=s(N,B,B)local i=Z[z]if i then V=V+i*(-1003222-(-1003286))^((979790-979787)-W)W=W+(598448+-598447)if W==794389-794385 then W=472244-472244 local z=U(V/(459965+-394429))local i=U((V%(-652322+717858))/(482179-481923))local s=V%(634152-633896)E(Y,w(z,i,s))V=-637652-(-637652)end elseif z=="\061"then E(Y,w(U(V/(-921465-(-987001)))))if B>=R or s(N,B+(-811605-(-811606)),B+(918896-918895))~="\061"then E(Y,w(U((V%(-661235+726771))/(-650118-(-650374)))))end break end B=B+(965559-965558)end i[z]=T(Y)end end end return(function(z,Z,y,R,T,w,E,s,K,r,U,u,H,N,b,O,Y,V,d,W,B,I,G)Y,d,u,W,U,b,G,V,B,N,I,r,s,K,O,H=function()B=B+(-717896+717897)N[B]=-462651-(-462652)return B end,function(z)N[z]=N[z]-(-559804-(-559805))if N[z]==-147984+147984 then N[z],U[z]=nil,nil end end,function(z,i)local Z=V(i)local y=function(...)return s(z,{...},i,Z)end return y end,function(z)local i,s=672019+-672018,z[-771444-(-771445)]while s do N[s],i=N[s]-(-411278-(-411279)),i+(-834886+834887)if N[s]==-961462-(-961462)then N[s],U[s]=nil,nil end s=z[i]end end,{},function(z,i)local Z=V(i)local y=function(y)return s(z,{y},i,Z)end return y end,function(z,i)local Z=V(i)local y=function(y,R,T,w,E,U)return s(z,{y;R;T,w,E,U},i,Z)end return y end,function(z)for i=-972803-(-972804),#z,-930016-(-930017)do N[z[i]]=(-738213+738214)+N[z[i]]end if y then local s=y(true)local Z=T(s)Z[i(-771122-(-765978))],Z[i(-104700+99548)],Z[i(141543-146733)]=z,W,function()return 694473+3440623 end return s else return R({},{[i(570741+-575893)]=W,[i(284689-289833)]=z;[i(316393-321583)]=function()return 538408+3596688 end})end end,85517+-85517,{},function(z,i)local Z=V(i)local y=function()return s(z,{},i,Z)end return y end,function(z,i)local Z=V(i)local y=function(y,R,T,w)return s(z,{y;R,T,w},i,Z)end return y end,function(s,y,R,T)local p,L,a,P,M,W,N,f,e,x,u,h,t,F,B,S,k,n,Q,A,q,zc,ic,X,D,V,o,m,j,E,J,g,v,l,c,C while s do if s<-418665+8093596 then if s<4071443-35709 then if s<3164497-590273 then if s<-845098+2218198 then if s<444565-(-186284)then if s<70499-(-185494)then if s<462788-353775 then N=U[R[-93295-(-93296)]]E=#N N=973088+-973088 s=E==N s=s and-198683+8482866 or 8266773-602357 else C=not D V=V+u B=V<=W B=C and B C=V>=W C=D and C B=C or B C=25564+14353919 s=B and C B=12454499-(-213746)s=s or B end else if s<579308+-298107 then s=8659320-(-500725)W=d(W)D=nil S=d(S)l=nil p=nil u=d(u)A=nil e=d(e)D=i(446000-451114)a=nil P=d(P)B=d(B)C=d(C)P=i(-245853-(-240597))Q=nil B=nil V=d(V)W=Y()U[W]=B A={}V=nil B=Y()U[B]=V u=z[D]D=i(-114715+109484)V=u[D]u=Y()U[u]=V C=i(525393+-530507)D=z[C]C=i(-365282+360112)l=i(565786+-570912)V=D[C]C=z[l]S=Y()l=i(203992-209123)e=614583+-614327 D=C[l]a={}l=z[P]P=i(485557+-490690)Q=Y()C=l[P]l=329267-329267 P=Y()F=e U[P]=l e=715330-715329 l=-760232+760234 U[S]=l L=e U[Q]=A A=-565208+565208 l={}e=878528+-878528 p=669383+-669382 j=L<e e=p-L else s=r(4971499-971073,{W})m={s()}s=z[i(271732+-276919)]E={Z(m)}end end else if s<-523559+1816322 then if s<626884+307876 then s=2026398-(-183178)else e=585607+9049809133807 l=24646426884939-(-78217)N=y[-79036+79037]E=i(-518002-(-512870))C=-499053+9112127548928 s=z[E]V=U[R[-478671+478672]]W=U[R[276514+-276512]]D=i(903737-908957)u=W(D,C)W=i(-254209-(-249054))A=774817+32333356984367 B=V[u]S=i(535872-540987)V=z[W]W={V()}E=s(B,N,Z(W))C=i(-276446+271193)E=i(263668-268792)a=i(-87624+82401)s=z[E]W=U[R[191853+-191852]]u=U[R[907388+-907386]]D=u(C,l)V=W[D]u=U[R[-185725-(-185728)]]C=U[R[731217+-731216]]l=U[R[784975-784973]]P=l(S,A)p=-748408+2137391001435 D=C[P]W=u..D D=U[R[-390802+390803]]P=i(860364-865487)Q=15067095045770-178978 C=U[R[1042982-1042980]]S=6821670725153-481721 l=C(P,S)u=D[l]C=U[R[605524+-605523]]l=U[R[257913+-257911]]S=i(-980745+975537)A=-480835+6281806471600 P=l(S,A)D=C[P]l=U[R[-959292+959293]]A=i(236081-241323)P=U[R[-192649-(-192651)]]S=P(A,Q)C=l[S]S=U[R[774791-774790]]A=U[R[187323+-187321]]Q=A(a,p)P=S[Q]A=U[R[-331402+331403]]p=i(-592493-(-587368))Q=U[R[-626353+626355]]a=Q(p,e)S=A[a]l={[P]=S}S=U[R[702991-702990]]a=i(-687054+681819)p=499482+30055386158993 A=U[R[-600545-(-600547)]]n=3399729899249-(-565054)m=i(-987547+982417)Q=A(a,p)P=S[Q]A=i(-1018602-(-1013403))S=z[A]p=U[R[495185+-495184]]e=U[R[-746831+746833]]M=e(m,n)a=p[M]A=i(541057+-546234)A=S[A]Q={[a]=N}N=nil A=A(S,Q)B={[V]=W;[u]=D,[C]=l,[P]=A}E=s(B)s=z[i(101283+-106443)]E={}end else s=12461045-(-712311)m=A==Q M=m end end else if s<611876+1550627 then if s<1010133-(-1021333)then if s<1283029-(-168211)then B=i(-894518-(-889337))V=12244701-(-239211)E=1194391-(-293794)N=B^V s=E-N E=i(403945+-409186)N=s s=E/N E={s}s=z[i(-927366-(-922223))]else s={}V=U[R[256539+-256530]]N=s B=19569+-19568 W=V s=-587406+701518 V=599858+-599857 u=V V=746163+-746163 D=u<V V=B-u end else if s<1853314-(-238224)then A=i(-663715+658519)s=724195+4802840 l=U[R[-587886-(-587887)]]Q=19966948985697-796432 P=U[R[934727+-934725]]S=P(A,Q)C=l[S]D=B[C]W=D else s=U[R[-108759-(-108764)]]B=U[R[277651+-277647]]N=s(B)s=477209+4680438 end end else if s<-784312+3329762 then if s<-652030+2869438 then s=true s=s and 598093+5253583 or 672376+6395264 else V=179941-179941 N=i(-865401+860293)s=z[N]B=U[R[979785+-979777]]N=s(B,V)s=2691379-776409 end else s=nil N=s s=U[R[-468532-(-468535)]]E=s()N=E V=not N s=V and-140583+5296126 or 10826083-(-944007)B=V end end end else if s<967663+2512430 then if s<2228502-(-889901)then if s<5404+2656731 then if s<1773681-(-833085)then B=U[R[-953479-(-953481)]]V=U[R[-946187+946190]]N=B==V s=5555431-668821 E=N else s=g E=h s=7908724-(-543765)end else if s<863616+1999003 then S=i(-347355+342226)N=i(1032475+-1037628)E=z[N]B=U[R[999936+-999935]]D=25478430325904-1035832 V=U[R[815477+-815475]]u=i(355228+-360335)W=V(u,D)D=i(189037+-194151)N=B[W]s=E[N]A=854283+3258333068514 u=z[D]B=-1014829.5-(-1014832)C=U[R[-150449+150450]]l=U[R[238091+-238089]]P=l(S,A)D=C[P]W=u[D]u=W()W=-387382.5-(-387383)V=u*W N=B+V E=s(N)s=E and 252948+2321240 or 15399186-(-173027)else F=i(-947485+942240)s=z[F]F=i(261631-266798)z[F]=s s=115152+3407947 end end else if s<211712+3132511 then if s<864076+2386721 then s=3285600-(-296539)U[R[364405+-364400]]=E N=nil else s=true s=-395019-(-776340)end else E=P s=S s=P and 8090570-424340 or 950375+3503842 end end else if s<1013638+2774629 then if s<865979+2684635 then if s<306412+3204810 then M=M+n L=not F E=M<=m E=L and E L=M>=m L=F and L E=L or E L=-909784+13740029 s=E and L E=-552067+15446019 s=s or E else s=1812013-(-397563)end else if s<3582280-(-11637)then s=U[R[832797+-832790]]s=s and 1199030-(-1022473)or-199817+2114787 else l=i(567562+-572745)C=z[l]Q=i(506369-511517)a=17391848055336-(-998778)P=U[R[691247-691246]]S=U[R[394627+-394625]]A=S(Q,a)l=P[A]D=C[l]s=536704+5357306 u=N==D V=u end end else if s<316704+3710029 then if s<19029+3787392 then e=#a s=-49260+7428531 F=-76677-(-76677)p=e==F else s=7498135-64673 end else E=i(487653-492852)s=z[E]C=i(110407-115595)B=U[R[458276-458275]]l=-397214+24139276417926 W=U[R[-773347+773349]]u=U[R[225936+-225933]]D=u(C,l)V=W[D]N=B[V]B=i(508365+-513511)B=s[B]E={B(s,N)}s=z[i(408624+-413835)]E={Z(E)}end end end end else if s<-544829+6582775 then if s<4006010-(-1013873)then if s<4993675-321606 then if s<-999727+5396931 then if s<992053+3141061 then V=i(-139971+134715)N=y B=Y()s=true U[B]=s E=z[V]V=i(519430+-524655)W=Y()s=E[V]V=Y()U[V]=s C=i(-319135-(-313896))s=H(381061+4006045,{})u=Y()U[W]=s l=b(-243838+16301850,{u})s=false U[u]=s D=z[C]C=D(l)s=C and 352764+10087755 or 870165+10044019 E=C else E=i(-18033-(-12925))N=i(586013+-591178)s=z[E]E=s(N)E={}s=z[i(539715-544901)]end else if s<-331703+4866950 then s=8699269-1033039 S=i(-425450-(-420204))P=z[S]E=P else h=U[B]s=h and 390+7726222 or 9112496-660007 E=h end end else if s<1042163+3942913 then if s<-483801+5381340 then s=E and 8065829-(-915737)or 591741+2990398 else E=i(-294498-(-289374))s=z[E]V=U[R[522626+-522625]]P=i(-24436-(-19187))C=-281066+16819751413890 S=17918108270803-(-942020)D=i(89637+-94793)W=U[R[787893-787891]]u=W(D,C)M=i(420047-425231)B=V[u]W=U[R[-119648+119651]]D=U[R[-503746+503747]]C=U[R[56294-56292]]F=i(126166-131275)l=C(P,S)u=D[l]V=W..u a=1262340961892-750617 u=U[R[625611+-625610]]S=-970074+2768004698722 P=16169+30500092098641 l=i(-573217+567996)D=U[R[-506105+506107]]C=D(l,P)W=u[C]D=U[R[567401+-567400]]P=i(858743-863956)C=U[R[716263+-716261]]l=C(P,S)u=D[l]p=496389+15336786561248 C=U[R[503188+-503187]]A=-1034122+14988292825805 S=i(1012203+-1017340)Q=i(677560+-682688)l=U[R[348063+-348061]]P=l(S,A)D=C[P]P=U[R[475199-475198]]S=U[R[710192-710190]]A=S(Q,a)l=P[A]a=i(96763+-101997)S=U[R[3776+-3775]]A=U[R[-864214+864216]]Q=A(a,p)L=562998+7286533305867 P=S[Q]C={[l]=P}P=U[R[-386332+386333]]S=U[R[-68747+68749]]Q=i(-735112-(-729976))a=-867780+8022103936091 A=S(Q,a)S=i(1015896-1021095)l=P[A]m=-43797+12039024787707 P=z[S]a=U[R[-422451-(-422452)]]p=U[R[465449-465447]]e=p(M,m)Q=a[e]e=i(578027-583210)p=z[e]M=U[R[897480-897479]]m=U[R[730796-730794]]n=m(F,L)F=-111115+8938321248845 S=i(507833+-513010)e=M[n]S=P[S]a=p[e]e=U[R[-355104+355105]]n=i(186-5401)M=U[R[-272337+272339]]m=M(n,F)p=e[m]e=-161979+161985 A={[Q]=a,[p]=e}S=S(P,A)N={[B]=V,[W]=u,[D]=C,[l]=S}E=s(N)N=Y()U[N]=E E=U[N]s=not E s=s and 1025039+7247157 or 733179+9794119 end else l=812306+17732039555887 E=i(-950617-(-945405))s=z[E]V=i(-214175-(-208992))B=z[V]C=i(-1001126+995985)W=U[R[975862-975861]]u=U[R[-177819+177821]]D=u(C,l)V=W[D]N=B[V]V=i(-201601+196422)E=s(N)l=17836772389593-430696 N=Y()U[N]=E B=z[V]C=i(861749+-866920)W=U[R[-1043651-(-1043652)]]u=U[R[857362-857360]]D=u(C,l)V=W[D]E=B[V]B=U[N]s=E==B s=s and 13533435-495733 or 6621959-(-224819)end end else if s<6283666-815318 then if s<4430773-(-726391)then if s<4025288-(-1032653)then l=S n=i(90948+-96204)m=z[n]n=i(-65742-(-60569))M=m[n]m=M(N,l)M=U[R[894025+-894019]]n=M()e=m+n p=e+D e=978477+-978221 l=nil s=14945682-503449 n=739652-739651 a=p%e e=V[B]D=a m=D+n M=W[m]p=e..M V[B]=p else s=B and 199092+9657010 or 564446+14161213 end else if s<1035160+4203292 then B=i(-534378+529225)N=z[B]C=3807617114750-(-320623)V=U[R[974681-974680]]W=U[R[-196651+196653]]D=i(-390641-(-385472))u=W(D,C)B=V[u]s=N[B]B=.6 N=s(B)s=U[R[-699563+699569]]N=s()s=N and 14470941-342761 or-564176+9715014 else s=z[i(193533-198750)]E={}end end else if s<-28040+5882539 then if s<5171238-(-585726)then E=W s=u s=-835338+9485614 else F=186656+-186650 s=U[C]n=729962+-729961 m=s(n,F)s=i(300087-305332)F=i(-74381-(-69136))z[s]=m n=z[F]F=84271+-84269 s=n>F s=s and 16410500-(-295167)or 3180767-114585 end else s=W s=5170347-14804 B=V end end end else if s<7783795-780159 then if s<406436+6231624 then if s<221126+6255798 then if s<5656022-(-511960)then s=U[R[458597-458596]]V=i(-282450-(-277267))B=z[V]l=-198785+4393659338878 W=U[R[-1012678+1012680]]u=U[R[276389-276386]]C=i(-488434+483314)D=u(C,l)V=W[D]N=B[V]B=U[R[321871-321867]]V=i(853407-858661)V=s[V]E={V(s,N,B)}s=z[i(245495-250653)]E={Z(E)}else a=i(575282+-580408)Q=z[a]a=i(21283+-26529)A=Q[a]s=3430404-3697 P=A end else if s<6355989-(-253576)then V=U[R[-833721+833727]]B=V==N s=3853564-711100 E=B else J=98825-98824 g=v[J]h=g s=14472956-570994 end end else if s<5967738-(-859168)then if s<73461+6726156 then u=i(-760255+755120)E=i(-249509+244377)s=z[E]B=U[R[609182+-609181]]D=359635+30387575044723 V=U[R[-613279-(-613281)]]W=V(u,D)V=i(41741+-46896)N=B[W]B=z[V]V={B()}E=s(N,Z(V))N=i(148162-153386)D=843104+394147160919 E=z[N]u=i(-477563-(-472451))B=U[R[854971-854970]]V=U[R[-374925+374927]]W=V(u,D)N=B[W]s=E[N]E=s()U[R[-336342-(-336345)]]=E s=U[R[-336954-(-336958)]]s=s and 3140798-998122 or 32828+5124819 else s=U[R[668913-668912]]V=s B=y[-338146-(-338148)]s=V[B]N=y[-295737+295738]s=s and 11206090-373436 or 13327887-654293 end else E=i(-665263-(-660084))u=i(426215-431342)s=z[E]D=22921215571062-(-128315)B=U[R[-235029-(-235030)]]V=U[R[-48968-(-48970)]]W=V(u,D)E=B[W]D=i(-984894-(-979781))B=U[N]s[E]=B B=i(-6177+1024)E=z[B]V=U[R[339730+-339729]]C=683928+24203684822126 W=U[R[649202+-649200]]u=W(D,C)B=V[u]V=O(7083753-(-658489),{R[-432875+432876],R[280577+-280575],N,R[-908596+908599]})s=E[B]B=1004014-1004012 E=s(B,V)E={}N=d(N)s=z[i(-324203+318952)]end end else if s<7872773-329060 then if s<1012829+6316188 then if s<6769595-(-332411)then s=z[i(801935-807082)]E={}else N=nil V=nil B=nil s=2456635-(-273550)end else if s<6630648-(-782101)then F=#a e=-700378-(-700379)p=V(e,F)e=D(a,p)q=-281087+281088 F=U[Q]s=9517000-745523 j=e-q L=C(j)F[e]=L p=nil e=nil else s=true s=s and 11872271-556593 or 4719322-(-574330)end end else if s<7691149-25658 then if s<8053517-417819 then A=679631+243090940322 l=i(-903531+898389)S=i(-169254-(-164027))E=i(-568322-(-563190))s=z[E]P=10989960260998-(-665207)u=U[R[158826-158825]]D=U[R[-840037+840039]]C=D(l,P)W=u[C]C=U[R[87249+-87248]]l=U[R[-61616+61618]]P=l(S,A)D=C[P]u=B[D]C=i(910735+-915890)P=i(219978-225123)D=z[C]C={D()}E=s(W,u,Z(C))S=1045654+13931867628737 E=i(58670-63882)s=z[E]D=U[R[838800+-838799]]C=U[R[-51575+51577]]l=C(P,S)u=D[l]W=B[u]E={s(W)}E={Z(E)}s=z[i(-185246-(-180027))]else V=i(-237768-(-232642))B=z[V]V=i(-201843-(-196712))N=B[V]V=U[R[1020198+-1020197]]B={N(V)}s=z[i(759692+-764939)]E={Z(B)}end else P=Y()S=-822044+822047 p=H(470314+920028,{})U[P]=E A=-460939+461004 s=U[C]E=s(S,A)s=-330090+330090 S=Y()U[S]=E A=s s=689265+-689265 Q=s n=i(-357596+352384)a=i(273232+-278471)E=z[a]a={E(p)}s={Z(a)}a=s E=-456437+456439 s=a[E]p=s E=i(-699401+694262)s=z[E]e=U[V]m=z[n]n=m(p)m=i(433437-438675)M=e(n,m)e={M()}E=s(Z(e))e=Y()U[e]=E E=-181141+181142 M=U[S]m=M M=285039+-285038 s=2944889-(-560103)n=M M=-1000488-(-1000488)F=n<M M=E-n end end end end end else if s<12960312-293851 then if s<-569305+10229543 then if s<7968706-(-746236)then if s<8122914-(-149366)then if s<-30013+7789189 then if s<8673917-934926 then g=s x=921550+-921549 k=v[x]x=false J=k==x s=J and 6811168-(-964298)or 3008426-400328 h=J else M=i(373705-378931)E=i(714246+-719378)P=i(-58025-(-52864))s=z[E]A=25611479242907-289285 B=U[R[-714548+714549]]V=U[R[463073-463071]]S=96847+28462493202806 D=251377+15666547656334 u=i(331878-337044)W=V(u,D)N=B[W]W=i(-629325-(-624170))B=U[R[988137+-988134]]V=z[W]C=31482533827735-(-222381)D=i(-457429+452254)W={V()}E=s(N,B,Z(W))E=i(-402328+397204)L=1091833473607-960587 F=i(-969879+964681)s=z[E]V=U[R[981344-981343]]W=U[R[-51446+51448]]u=W(D,C)B=V[u]a=862139+31600344338880 W=U[R[-409858-(-409862)]]D=U[R[-593233-(-593234)]]C=U[R[583807+-583805]]l=C(P,S)u=D[l]V=W..u S=20944589425554-517497 u=U[R[-22672+22673]]l=i(486654+-491818)P=24778675927069-969483 Q=i(-904515-(-899364))m=1029476+33737734440954 D=U[R[-681648-(-681650)]]C=D(l,P)P=i(719208+-724456)W=u[C]D=U[R[614331-614330]]C=U[R[748886-748884]]l=C(P,S)u=D[l]C=U[R[768840-768839]]S=i(-703020+697813)l=U[R[508965+-508963]]p=449122+27226394449700 P=l(S,A)D=C[P]P=U[R[-615831+615832]]S=U[R[-704910-(-704912)]]A=S(Q,a)l=P[A]S=U[R[-817624-(-817625)]]A=U[R[17391+-17389]]a=i(322457+-327597)Q=A(a,p)P=S[Q]C={[l]=P}Q=i(582035-587197)a=5494202408195-692997 P=U[R[-60596-(-60597)]]S=U[R[-198442-(-198444)]]A=S(Q,a)S=i(924641+-929840)l=P[A]P=z[S]S=i(803490+-808667)a=U[R[268955-268954]]p=U[R[-511794-(-511796)]]e=p(M,m)Q=a[e]e=i(473882+-479065)p=z[e]S=P[S]M=U[R[848094-848093]]m=U[R[-253254+253256]]n=m(F,L)e=M[n]a=p[e]n=i(-896148+890953)e=U[R[261041-261040]]F=-662527+365216947369 M=U[R[-842622-(-842624)]]m=M(n,F)p=e[m]e=U[R[-582862-(-582865)]]A={[Q]=a,[p]=e}S=S(P,A)N={[B]=V;[W]=u;[D]=C,[l]=S}E=s(N)s=z[i(863878+-868994)]E={}end else if s<-386671+8259645 then x=438089+-438087 k=v[x]x=U[c]J=k==x s=-504306+3112404 h=J else s=nil E={s}s=z[i(17272-22454)]end end else if s<-804829+9387885 then if s<-756699+9049972 then V=381724+-381607 B=U[R[591365+-591363]]N=B*V B=11282351213908-112847 E=N+B N=35184371781113-(-307719)s=E%N U[R[491840+-491838]]=s N=U[R[-361101+361104]]B=-1043656-(-1043657)s=340331+14565605 E=N~=B else s=8168658-(-917719)U[B]=E end else s=E and 6601523-(-963941)or-92337+16625963 end end else if s<9791301-661134 then if s<-315020+9228952 then if s<8564452-(-234311)then F=-282793+282793 e=#a p=e==F s=p and 9636696-390494 or 6734532-(-644739)else s=-746631+15482709 C=nil W=nil D=nil end else if s<10042187-1015776 then E=i(-312908-(-307769))s=z[E]N=U[R[689540+-689536]]W=i(-169234-(-164022))l=i(-49270-(-44031))P=K(11962571-548883,{})V=z[W]C=z[l]l={C(P)}D={Z(l)}C=-266739-(-266741)u=D[C]W=V(u)V=i(-496073+490835)B=N(W,V)N={B()}E=s(Z(N))N=E B=U[R[-348580-(-348585)]]s=B and-578128+7135496 or-316329+3458793 E=B else c=d(c)v=nil s=45668+3459324 f=d(f)o=d(o)L=d(L)q=d(q)j=d(j)end end else if s<9121523-(-45253)then if s<548655+8604560 then N=nil s=z[i(905048-910216)]E={}else q=not j e=e+L p=e<=F p=q and p q=e>=F q=j and q p=q or p q=-13647+14842062 s=p and q p=823631+2973602 s=s or p end else p={}a=nil e=Y()q={}L=Y()F=b(-552994-(-660163),{e,P;S;u})l=nil U[e]=p C=nil p=Y()j=i(-265769-(-260553))J=nil U[p]=F F={}D=nil v=i(-282030-(-276812))U[L]=F A=nil F=z[j]c=U[L]V=nil l=i(114062-119265)o=i(865509-870653)f={[o]=c,[v]=J}A=i(-634045-(-628891))j=F(q,f)F=G(-574371+7392292,{L;e,Q;P;S,p})Q=d(Q)P=d(P)P=635399+28074549313802 p=d(p)p=771888.5-771888 e=d(e)U[B]=j S=d(S)u=d(u)L=d(L)U[W]=F u=U[B]D=U[W]C=D(l,P)D=i(-416748+411565)V=u[C]Q=373899+32893914924874 u=Y()U[u]=V V=z[D]D=i(641900+-647100)l=U[B]P=U[W]S=P(A,Q)D=V[D]ic=30446944028776-69895 C=l[S]l=H(522030+11828776,{B,W,u})D=D(V,C)e=628784.5-628784 V=Y()U[V]=D a=506490-506489 P=I(13900690-424454,{B;W})F=-411432-(-411444)Q=Y()q=O(236070+14444573,{B;W,V})D=Y()k=i(257208-262402)C=I(-297440+5241933,{B,W,u})U[D]=C C=Y()U[C]=l S=nil zc=i(961482-966704)l=G(869602-(-74579),{B;W,u})A=380638+-380638 U[Q]=S S=Y()L=Y()U[S]=A U[L]=q A=739261-739261 x=-688077+4636751448124 f=U[V]c=U[B]v=U[W]J=v(k,x)o=c[J]q=f[o]J=i(980157+-985333)A=nil f=i(495808-500965)o=H(218804+6503058,{B;W;S;Q,C;D,L})k=18623565349977-582265 f=q[f]f=f(q,o)f=i(-56941+51762)q=z[f]V=d(V)F=nil o=U[B]Q=d(Q)c=U[W]C=d(C)v=c(J,k)c=s c=i(-508659-(-503549))l=nil f=o[v]k=i(87144+-92323)J=z[k]x=U[B]S=d(S)X=U[W]t=X(zc,ic)k=x[t]v=J[k]J=nil s=z[i(-23701-(-18457))]X=-87167+1953093916684 o=v or J q[f]=o x=i(-61174-(-56002))q=K(-795870+5803021,{B;W;u})P=nil o=z[c]a=nil v=U[B]e=nil u=d(u)J=U[W]k=J(x,X)p=nil c=v[k]q=nil f=o[c]E={}c=O(14002978-703210,{B,W;D,L})o=f(c)f=o()L=d(L)D=d(D)B=d(B)W=d(W)end end end else if s<35+11286508 then if s<9784838-(-786674)then if s<10509324-81278 then if s<327094+9685261 then l=21967187032144-(-815013)C=i(635032+-640212)V=i(-410241-(-405088))B=z[V]W=U[R[619812-619811]]u=U[R[839-837]]D=u(C,l)V=W[D]a=893041+15089771805441 s=B[V]l=i(-718943-(-713829))C=z[l]P=U[R[1038758+-1038757]]W=-452150+452151 S=U[R[-981658-(-981660)]]Q=i(-812739-(-807620))A=S(Q,a)l=P[A]D=C[l]C=D()D=.4 u=C*D V=W+u B=s(V)s=-775876+15501535 else B=nil N=nil s=-619865+16192078 V=nil end else if s<10538459-67284 then D=U[u]E=D s=10658061-(-256123)else V=H(880181+3152179,{N,R[714103+-714102];R[529412+-529410]})E=i(-809278-(-804039))s=z[E]W={s(V)}B=W[543799-543797]E=W[1005440-1005439]V=E s=V and 336346+11691912 or 9204486-554210 E=V end end else if s<11746018-611358 then if s<10640358-(-200370)then s=13718041-(-1018037)else D=E C=i(82597+-87711)E=z[C]l=i(-334120+328994)C=i(128443+-133613)s=E[C]C=Y()U[C]=s E=z[l]l=i(-998742-(-993557))s=E[l]Q=i(950944-956070)A=z[Q]S=s P=A l=s s=A and 7082962-741130 or 2417937-(-1008770)end else s=true s=s and 1838741-955575 or-94139-(-475460)end end else if s<11775075-(-57926)then if s<10641227-(-1042925)then if s<10760720-(-643998)then N=i(-576035+570868)E=i(-412342+407097)s=z[E]E=z[N]N=i(-465994-(-460827))z[N]=s N=i(159808-165053)z[N]=E N=U[R[903887-903886]]B=N()s=264298+7169164 else B=i(-233291-(-228061))V=-276044+6188755 N=B^V E=13011260-(-103552)s=E-N N=s E=i(-812357-(-807239))s=E/N E={s}s=z[i(800095-805332)]end else if s<11663169-(-54070)then l=i(-12579+7458)E=i(-796491+791359)s=z[E]u=U[R[225992+-225991]]D=U[R[3008-3006]]P=16455705803762-(-926204)C=D(l,P)D=i(-544877-(-539722))W=u[C]u=z[D]D={u()}E=s(W,Z(D))s=true E={s}s=z[i(-915014-(-909762))]else C=891471+-891461 W=s D=#N u=D<=C V=u s=u and 828775+5065235 or-38653+3756725 end end else if s<137407+12378552 then if s<583652+11493702 then W=B u=s s=B and 3127079-1043991 or-487136+6014171 else C=34355239128535-347994 D=i(912961+-918163)E=i(462982-468114)N=y[-276333-(-276334)]s=z[E]V=U[R[-694033-(-694034)]]W=U[R[-689896+689898]]l=23420361020009-(-448560)Q=-495240+27658644340951 u=W(D,C)B=V[u]W=i(-26713+21558)a=i(459110-464284)S=i(-214995+209763)V=z[W]W={V()}E=s(B,N,Z(W))n=4258808231376-437777 E=i(-479851-(-474727))s=z[E]W=U[R[-979478-(-979479)]]u=U[R[903970+-903968]]C=i(-853603+848389)m=i(596942+-602133)D=u(C,l)V=W[D]u=U[R[791218+-791215]]C=U[R[-931666-(-931667)]]l=U[R[-279552-(-279554)]]A=30052795044975-(-909883)p=6471645589065-451204 P=l(S,A)D=C[P]S=13924423695547-779111 W=u..D A=34397579473804-177403 D=U[R[-823765-(-823766)]]C=U[R[44613+-44611]]P=i(14954-20209)l=C(P,S)u=D[l]C=U[R[-710012+710013]]l=U[R[-849123-(-849125)]]S=i(-1035109+1029881)P=l(S,A)D=C[P]l=U[R[-685540+685541]]A=i(965197-970430)P=U[R[-395868+395870]]S=P(A,Q)C=l[S]S=U[R[699110-699109]]e=-94569+33014148132214 A=U[R[304166+-304164]]Q=A(a,p)P=S[Q]A=U[R[-203668-(-203669)]]p=i(-405508-(-400316))Q=U[R[-249980+249982]]a=Q(p,e)S=A[a]l={[P]=S}S=U[R[-520067+520068]]A=U[R[-222551+222553]]a=i(-171687-(-166478))p=-487795+8561318838533 Q=A(a,p)A=i(541580+-546779)P=S[Q]S=z[A]p=U[R[-457880+457881]]A=i(-419015+413838)e=U[R[885050-885048]]A=S[A]M=e(m,n)a=p[M]Q={[a]=N}A=A(S,Q)B={[V]=W;[u]=D;[C]=l,[P]=A}E=s(B)E={}N=nil s=z[i(211614+-216824)]end else l=i(-268302+263101)E=i(-854007-(-848778))s=z[E]u=U[R[734386+-734385]]P=22821398933134-(-768757)D=U[R[-44424-(-44426)]]C=D(l,P)W=u[C]D=i(-645760+640605)u=z[D]D={u()}E=s(W,B,Z(D))s=false E={s}s=z[i(-149414-(-144236))]end end end end else if s<15629548-896630 then if s<13200967-(-283329)then if s<13837354-682719 then if s<714896+12061846 then if s<13170535-497577 then s=U[R[-565018-(-565028)]]B=U[R[701943-701932]]N[s]=B s=U[R[-351332+351344]]B={s(N)}E={Z(B)}s=z[i(-151047-(-145850))]else s={}u=-713659+35184372802491 U[R[-400166-(-400168)]]=s C=-544324-(-544579)E=U[R[-199195-(-199198)]]s=14251182-(-191051)W=E E=B%u U[R[249884-249880]]=E D=B%C C=-110908-(-110910)u=D+C l=i(-719357-(-714101))U[R[51570+-51565]]=u C=z[l]l=i(-186992-(-181803))D=C[l]S=-434330-(-434331)l=-13231-(-13232)C=D(N)D=i(860406+-865610)P=C V[B]=D A=S S=-819598-(-819598)D=788722+-788605 Q=A<S S=l-A end else if s<12453887-(-458414)then j=i(739213+-744327)X=707417-707417 L=Y()U[L]=M E=z[j]j=i(996308+-1001478)t=-964500-(-974500)c=-255394-(-255395)s=E[j]j=157661-157660 q=-188902-(-189002)E=s(j,q)f=240436+-240181 q=-772598-(-772598)j=Y()U[j]=E s=U[C]v=1024975+-1024973 E=s(q,f)q=Y()f=572985+-572984 J=i(874004-879216)U[q]=E s=U[C]o=U[j]E=s(f,o)f=Y()U[f]=E E=U[C]o=E(c,v)E=-793560+793561 s=o==E o=Y()E=i(-536862+531624)U[o]=s v=i(174563-179712)g=z[J]k=U[C]x={k(X,t)}J=g(Z(x))g=i(-566383+561234)h=J..g c=v..h s=i(-235332+230089)s=p[s]s=s(p,E,c)c=Y()h=r(16928453-337304,{C;L,S;V;B,e,o,c;j,f;q,P})U[c]=s v=i(-258085+252846)E=z[v]v={E(h)}s={Z(v)}v=s s=U[o]s=s and-121040+4743013 or 967293+14539138 else E={}s=z[i(423740+-428862)]end end else if s<-54590+13471790 then if s<3296+13219454 then U[B]=M s=U[B]s=s and 15710488-315628 or 375530+2905370 else s=-838941+3569126 end else B=i(415702-420816)N=z[B]P=2893118149861-511906 D=i(-156756+151622)S=327396+15438754880817 V=U[R[1025752-1025751]]C=24386597252072-475021 l=i(697784+-703024)W=U[R[-976179-(-976181)]]u=W(D,C)B=V[u]W=i(1002179+-1007293)E=N[B]V=z[W]u=U[R[285726-285725]]D=U[R[677751+-677749]]C=D(l,P)W=u[C]B=V[W]W=-485637+485637.5 P=i(-606508-(-601402))V=B(W)u=i(939027+-944141)W=z[u]D=U[R[892915+-892914]]C=U[R[-143990-(-143992)]]l=C(P,S)u=D[l]B=W[u]u=-546692+546692.5 W={B(u)}N=E(V,Z(W))E=-426604+427604 s=N/E B=i(556696+-561849)C=996234+31673129649682 E=z[B]D=i(887335+-892473)V=U[R[-934308-(-934309)]]N=s W=U[R[-708687-(-708689)]]u=W(D,C)B=V[u]s=E[B]E=s(N)N=nil s=z[i(284241-289358)]E={}end end else if s<114219+14277029 then if s<13914806-(-182100)then if s<13909070-373348 then B=U[R[126074-126071]]P=704511+-704509 V=683938-683906 N=B%V W=U[R[950702-950698]]C=U[R[112716-112714]]A=-591945-(-591958)p=U[R[-922768+922771]]a=p-N p=781064-781032 Q=a/p S=A-Q l=P^S D=C/l u=W(D)W=4295633726-666430 l=-721281-(-721282)V=u%W u=226561-226559 W=u^N B=V/W W=U[R[387510-387506]]C=B%l l=-434525+4295401821 D=C*l C=-703042-(-768578)u=W(D)W=U[R[1022550+-1022546]]D=W(B)V=u+D u=-935503+1001039 s=7040039-(-624377)B=nil W=V%u P=-32688+32944 D=V-W u=D/C C=-821010+821266 D=W%C A=-298952+299208 l=W-D C=l/P P=104583+-104327 l=u%P S=u-l P=S/A N=nil u=nil V=nil W=nil S={D,C,l;P}D=nil P=nil U[R[-709776+709777]]=S l=nil C=nil else U[B]=h x=U[f]X=715506-715505 k=x+X J=v[k]g=A+J J=701826+-701570 s=g%J A=s k=U[q]s=41779+9044598 J=Q+k k=591121-590865 g=J%k Q=g end else if s<13574103-(-614764)then s=U[R[803397+-803390]]B=s(N)s=-303785+9454623 else B=V s=U[R[-127592-(-127593)]]l=-652051+652051 P=274946+-274691 C=s(l,P)N[B]=C s=339631+-225519 B=nil end end else if s<363368+14341632 then if s<14373573-(-154176)then S=S+A l=S<=P a=not Q l=a and l a=S>=P a=Q and a l=a or l a=706817+4349605 s=l and a l=713037+8170816 s=s or l else N=Y()D=i(-457439+452233)E=i(133345+-138477)U[N]=y[728950-728949]s=z[E]V=U[R[-706467-(-706468)]]C=11831438384923-(-390762)W=U[R[756185-756183]]u=W(D,C)B=V[u]u=i(176263-181418)V=U[N]W=z[u]u={W()}E=s(B,V,Z(u))E=i(634842+-640081)s=z[E]V=O(141115+5926142,{R[680906-680903],R[-261400-(-261401)],R[-938400-(-938402)];N})W={s(V)}E=W[422691+-422690]V=E B=W[-115210+115212]s=V and 11404131-(-308580)or-808164+13429718 end else B=919259.25-919259 D=i(795373+-800487)u=z[D]C=U[R[658948+-658947]]S=i(870932+-876043)A=225392+21785507968816 l=U[R[543292-543290]]P=l(S,A)D=C[P]W=u[D]u=W()W=-716969+716969.75 l=i(-12395-(-7145))V=u*W s=B+V W=i(838945-844098)V=z[W]u=U[R[405415+-405414]]D=U[R[-94556+94558]]B=s P=3238523345403-873495 C=D(l,P)W=u[C]s=V[W]V=s(B)s=U[R[483111-483107]]V=s(N)s=V and 10654475-584967 or 16673783-929978 end end end else if s<138955+15399334 then if s<-143726+15481695 then if s<14427123-(-429920)then if s<15432211-627580 then E={B}s=z[i(-805669-(-800433))]else p=e q=p s=8720391-(-439654)a[p]=q p=nil end else if s<614289+14291539 then m=U[B]M=m s=m and-828661+2194590 or 14145389-972033 else V=-298846+299028 B=U[R[224451+-224448]]N=B*V B=853486+-853229 s=-277008+15628832 E=N%B U[R[-345674-(-345677)]]=E end end else if s<15211743-(-248008)then if s<15344286-(-38042)then V=-865538+865539 B=U[R[293854-293851]]N=B~=V s=N and 593470+12922622 or 14910173-4237 else s=233778+33431 end else g=U[B]s=g and-974341+7590329 or-301272+14203234 h=g end end else if s<110106+16291821 then if s<16895623-858074 then if s<14763806-(-860219)then E={}s=z[i(200733-205938)]else S=2726799759294-(-535863)u=i(-447007+441854)P=i(1028699+-1033858)e=-691567+26422259645822 W=z[u]D=U[R[64100-64099]]C=U[R[-46356-(-46358)]]l=C(P,S)u=D[l]D=989191-989189 p=i(-9753-(-4603))S=i(205299-210413)s=W[u]P=z[S]A=U[R[-86392-(-86393)]]Q=U[R[606361+-606359]]a=Q(p,e)S=A[a]l=P[S]P=l()l=-1037146+1037146.5 C=P*l u=D+C W=s(u)s=6298729-(-909902)end else E={}s=true U[R[542138+-542137]]=s s=z[i(844381-849638)]end else if s<-178817+16864114 then if s<1005087+15538810 then E=i(-661217-(-656085))P=12757119634811-(-772537)s=z[E]u=U[R[-321319+321320]]l=i(-851265+846102)D=U[R[138341-138339]]C=D(l,P)W=u[C]D=i(942645+-947800)u=z[D]D={u()}E=s(W,Z(D))s=nil E={s}s=z[i(236925-242118)]else u=-836757+836759 B=U[R[-521596-(-521597)]]W=-162572+162573 V=B(W,u)B=866366+-866365 N=V==B s=N and 428950+4457660 or-548544+3132505 E=N end else n=i(-640624+635412)L=i(386721+-391888)s=z[n]F=z[L]n=s(F)s=i(548863-554108)z[s]=n s=4386897-863798 end end end end end end end s=#T return Z(E)end,function(z,i)local Z=V(i)local y=function(y,R,T,w,E)return s(z,{y;R,T;w,E},i,Z)end return y end,function(z,i)local Z=V(i)local y=function(y,R)return s(z,{y;R},i,Z)end return y end,function(z,i)local Z=V(i)local y=function(y,R,T)return s(z,{y;R,T},i,Z)end return y end return(u(622569+3420345,{}))(Z(E))end)(getfenv and getfenv()or _ENV,unpack or table[i(226077+-231323)],newproxy,setmetatable,getmetatable,select,{...})end)(...)